"temp","CO2_av","CO2_med","Moving*","Modelled","CO2_scaled","CO2_prop"
46,119,119,117.991270260747,111.717604357273,117.991270260747,0.00208481717204985
50,148,148,111.116270260747,143.688150936404,111.116270260747,0.00196334108296149
53,173,173,112.267045454545,168.420490596704,112.267045454545,0.00198367441677422
57,192,192,112.425,196.54087812624,112.425,0.00198646535501939
59,204,204,114.6,204.989697356425,114.6,0.00202489597229462
61,208,208,114.65,207.605627685078,114.65,0.00202577943476071
63,202,202,114.15,202.819689703343,114.15,0.00201694481009974
65,189,189,111.95,189.062904002364,111.95,0.00197807246159147
67,170,170,108.05,165.638635051225,108.05,0.00190916238923589
68,147,147,102.4,151.11940410849,102.4,0.00180933113056692
70,120,120,95.05,118.757426700431,95.05,0.00167946214805064
72,93,93,86.1,85.018331811246,86.1,0.00152132236661925
73,67,67,75.9,68.7777040171031,75.9,0.00134109602353544
74,45,45,64.75,53.5018292079801,64.75,0.00114408389359578
76,25,25,53,26.3040245475539,53,0.000936470214062956
78,9,9,41.05,4.0174193767627,41.05,0.000725322684665742
79,-4,-4,29.4,-5.11945607031621,29.4,0.000519475930065111
80,-14,-14,18.4,-12.8308588493422,18.4,0.000325114187523743
81,-20,-20,8.35,-19.0508980284339,8.35,0.00014753823183822
82,-25,-25,-0.550000000000001,-23.7600176789137,-0.550000000000001,-9.71808712706842e-06
84,-28,-28,-8.15,-29.3549697337922,-8.15,-0.000144004381973832
85,-31,-31,-14.425,-30.6650403128738,-14.425,-0.000254878921469021
86,-31,-31,-19.5,-31.2663327095057,-19.5,-0.00034455036177788
87,-31,-31,-23.575,-31.3709660110293,-23.575,-0.000416552552764796
88,-31,-31,-26.775,-31.1796563159189,-26.775,-0.000473094150595012
89,-31,-31,-29.2,-30.8475077671805,-29.2,-0.000515942080200723
90,-31,-31,-31.075,-30.5182215189528,-31.075,-0.000549071922679365
91,-31,-31,-32.4875,-30.3354987253744,-32.4875,-0.000574029737346609
92,-31,-31,-33.6541666666667,-30.4430405405841,-33.6541666666667,-0.000594643861555542
93,-31,-31,-34.5791666666667,-30.9845481187207,-34.5791666666667,-0.000610987917178339
94,-32,-32,-35.3291666666667,-32.0502958773544,-35.3291666666667,-0.000624239854169796
95,-32.5,-32.5,-35.9791666666667,-33.5168512877814,-35.9791666666667,-0.000635724866229058
96,-34.5,-34.5,-36.6291666666667,-35.2073550847293,-36.6291666666667,-0.000647209878288321
97,-36.5,-36.5,-37.3291666666667,-36.9449480029259,-37.3291666666667,-0.000659578352813681
98,-39,-39,-38.1291666666667,-38.5527707770987,-38.1291666666667,-0.000673713752271235
99,-39.5,-39.5,-38.9291666666667,-39.8908960025793,-38.9291666666667,-0.000687849151728789
100,-41.5,-41.5,-39.7291666666667,-40.967123717114,-39.7291666666667,-0.000701984551186343
101,-42.25,-42,-40.5291666666667,-41.8261858190529,-40.5291666666667,-0.000716119950643897
102,-43.3333333333333,-43,-41.2291666666667,-42.512814206746,-41.2291666666667,-0.000728488425169257
103,-43.5,-43.5,-41.9291666666667,-43.0717407785434,-41.9291666666667,-0.000740856899694617
104,-43,-43,-42.5291666666667,-43.5476974327952,-42.5291666666667,-0.000751458449287782
105,-44,-44,-43.0291666666667,-43.9781420358727,-43.0291666666667,-0.000760293073948753
109,-44,-44,-43.3541666666667,-45.3392943857756,-43.3541666666667,-0.000766035579978385
111,-45,-45,-43.5291666666667,-45.8187228139666,-43.5291666666667,-0.000769127698609725
112,-47,-47,-43.5291666666667,-46.0119570640428,-43.5291666666667,-0.000769127698609725
114,-47,-47,-43.5041666666667,-46.310904168544,-43.5041666666667,-0.000768685967376676
115,-47,-47,-43.4291666666667,-46.4073288457478,-43.4291666666667,-0.00076736077367753
116,-47,-47,-43.4166666666667,-46.4086987339514,-43.4166666666667,-0.000767139908061006
117,-45,-45,-43.4625,-46.2473199985763,-43.4625,-0.000767949748654928
119,-45,-45,-43.6875,-45.1655413187754,-43.6875,-0.000771925329752366
120,-44,-44,-43.9375,-44.1097537051922,-43.9375,-0.000776342642082851
121,-42.5,-42.5,-44.0708333333333,-42.6817686327646,-44.0708333333333,-0.000778698541992444
122,-41,-41,-44.0458333333333,-41.1205247821574,-44.0458333333333,-0.000778256810759395
123,-40,-40,-43.8708333333333,-39.7262873370848,-43.8708333333333,-0.000775164692128055
124,-39,-39,-43.5208333333333,-38.7993214812605,-43.5208333333333,-0.000768980454865375
125,-39,-39,-43.1136904761905,-38.6398923983984,-43.1136904761905,-0.00076178654621287
126,-40,-40,-42.6470238095238,-39.5482652722125,-42.6470238095238,-0.000753540896529297
127,-42,-42,-42.0695238095238,-41.651988837851,-42.0695238095238,-0.000743336905045875
128,-44.25,-44,-41.6195238095238,-44.3877460362002,-41.6195238095238,-0.000735385742851001
129,-48,-48,-41.0195238095238,-47.0195033595808,-41.0195238095238,-0.000724784193257835
130,-48,-48,-40.3695238095238,-48.8112273003134,-40.3695238095238,-0.000713299181198573
131,-46.6666666666667,-47,-39.6945238095238,-49.0268843507189,-39.6945238095238,-0.000701372437906261
132,-43.5,-43.5,-39.0445238095238,-47.1819503534035,-39.0445238095238,-0.000689887425846999
133,-41.5,-41.5,-38.3945238095238,-43.7979385521163,-38.3945238095238,-0.000678402413787736
134,-40,-40,-37.7445238095238,-39.6478715408919,-37.7445238095238,-0.000666917401728473
135,-38.8571428571429,-40,-37.0445238095238,-35.504771913765,-37.0445238095238,-0.000654548927203113
136,-37.6666666666667,-37,-36.2945238095238,-32.1416622647703,-36.2945238095238,-0.000641296990211657
137,-35.45,-35,-35.4945238095238,-30.3315651879425,-35.4945238095238,-0.000627161590754102
138,-36,-36,-34.5820238095238,-30.6100191624643,-34.5820238095238,-0.00061103840074783
139,-33,-33,-33.4820238095238,-32.5626262081112,-33.4820238095238,-0.000591602226493693
140,-31,-31,-32.3820238095238,-35.5375042298066,-32.3820238095238,-0.000572166052239556
143,-29,-29,-31.3486904761905,-44.0769432004193,-31.3486904761905,-0.000553907827940216
145,-28,-28,-30.4736904761905,-42.9300856513351,-30.4736904761905,-0.000538447234783516
148,-27,-27,-29.6486904761905,-25.1951576201688,-29.6486904761905,-0.000523870104092913
149,-26,-26,-28.8486904761905,-18.0158113724691,-28.8486904761905,-0.000509734704635359
150,-25,-25,-28.0308333333333,-11.8134489173677,-28.0308333333333,-0.000495283782868485
151,-25,-25,-27.0725,-7.55457160161641,-27.0725,-0.00047835075226829
153,-26,-26,-26.15,-8.73327777517298,-26.15,-0.000462050869768798
154,-26,-26,-25.2,-16.1038639579851,-25.2,-0.000445265082912953
155,-26,-26,-13.60625,-28.4649169944348,-13.60625,-0.000240412223586681
156,-26,-26,-1.36458333333333,-42.6878198676704,-1.36458333333333,-2.41111631372341e-05
157,-26,-26,9.39970238095238,-54.8249318881183,9.39970238095238,0.000166085684921105
158,-26,-26,19.6497023809524,-60.9286123662059,19.6497023809524,0.000347195490471016
159,-25,-25,27.0934523809524,-57.0512206123598,27.0934523809524,0.000478720965111226
160,-24,-24,33.7809523809524,-40.5908815865941,33.7809523809524,0.000596884069951717
161,-22.5,-22.5,39.0309523809524,-14.3287828472713,39.0309523809524,0.000689647628891915
163,-18.5,-18.5,43.7609523809524,51.0928809402448,43.7609523809524,0.000773223178184704
164,-17,-17,47.5942857142857,81.9985395725386,47.5942857142857,0.000840955300585483
165,-17,-17,67.3442857142857,106.198145086591,67.3442857142857,0.00118992297469385
166,198.875,316,87.2942857142857,119.56474427445,87.2942857142857,0.0015424244986666
167,213.833333333333,272,107.494285714286,119.797177518231,107.494285714286,0.00189934333496984
168,186.285714285714,236,127.794285714286,111.897459560301,127.794285714286,0.00225802909620528
169,177,221,148.294285714286,102.69339873309,148.294285714286,0.0026202487073051
170,121.875,188.5,168.744285714286,99.012803369029,168.744285714286,0.00298158485593882
171,107.75,160.5,189.194285714286,107.683481800549,189.194285714286,0.00334292100457255
172,80,99,209.619285714286,133.391712523777,209.619285714286,0.00370381542197323
173,69.6,61,229.944285714286,172.257654689631,229.944285714286,0.00406294291444171
174,50.6666666666667,34,250.394285714286,218.259937612723,250.394285714286,0.00442427906307543
175,369,369,271.219285714286,265.377190607669,271.219285714286,0.00479224118020489
176,373,373,281.650535714286,307.58804298908,281.650535714286,0.0049765535371944
177,378,378,291.658869047619,340.152020976862,291.658869047619,0.00515339327415818
178,380,380,306.359289215686,363.452238412081,306.359289215686,0.00541313866324507
179,384,384,321.10262254902,379.152706041092,321.10262254902,0.00567364229574824
180,384,384,339.031094771242,388.917434610253,339.031094771242,0.00599042494140421
181,385,385,357.218594771242,394.410434865918,357.218594771242,0.00631178441344704
182,386,386,380.318594771242,397.295717554445,380.318594771242,0.00671994407278391
183,388,388,404.388594771242,399.171041962551,404.388594771242,0.00714524290396307
184,392,392,429.655261437908,401.369161538398,429.655261437908,0.00759168593683082
185,399.5,399.5,439.255261437908,405.15657827051,439.255261437908,0.00776131073032147
186,407.5,407.5,449.255261437909,411.799794147408,449.255261437909,0.00793800322354089
187,414,414,459.005261437909,422.565311157619,459.005261437909,0.00811027840442983
188,480.294117647059,490,469.330261437909,438.231445126661,469.330261437909,0.00829271340367889
189,471.866666666667,486,480.005261437909,457.623767228047,480.005261437909,0.00848133264019063
190,480.444444444444,485,491.130261437909,479.079662472289,491.130261437909,0.00867790303889724
191,471.5,471.5,502.580261437909,500.936515869896,502.580261437909,0.00888021594363348
194,542,542,518.142761437909,552.286675088014,518.142761437909,0.00915519363620621
195,551,551,539.799904295051,559.121211204187,539.799904295051,0.00953785909294999
196,556,556,560.434519679667,559.052836474199,560.434519679667,0.00990245725684315
197,561,561,581.176186346333,555.464965648173,581.176186346333,0.0102689469365291
198,573,573,607.851186346334,552.750219424153,607.851186346334,0.0107402741621919
199,573,573,634.501186346333,555.301218500182,634.501186346333,0.0112111596566217
200,586.5,586.5,658.186480463981,567.510583574306,658.186480463981,0.0116296610236499
201,597.5,597.5,682.793147130647,592.455359158947,682.793147130647,0.0120644423519652
202,606.5,606.5,707.420924908425,627.950285024046,707.420924908425,0.0124995966977662
203,614,614,733.045924908425,670.494524753919,733.045924908425,0.0129523712116409
204,697.25,625,755.795924908425,716.587241932886,755.795924908425,0.0133543466337151
205,821.142857142857,917,778.945924908425,762.727600145265,778.945924908425,0.0137633897555181
206,804.692307692308,888,802.995924908425,805.414762975375,802.995924908425,0.0141883352017108
207,814.333333333333,816.5,828.529258241758,841.847429004783,828.529258241758,0.0146394900343978
210,941,941,865.435508241758,916.384971983463,865.435508241758,0.0152915957671857
211,947,947,915.573008241758,931.965246499231,915.573008241758,0.0161774877550646
213,954,954,964.461644605395,953.405677221977,964.461644605395,0.0170413132599835
214,964,964,1019.51164460539,960.658580564589,1019.51164460539,0.0180140054351564
215,973,973,1079.73664460539,967.345485591073,1079.73664460539,0.0190781359755704
216,984,984,1141.13664460539,978.247990565704,1141.13664460539,0.0201630278839377
217,997,997,1199.97414460539,998.964738692051,1199.97414460539,0.0212026423409175
218,1014,1014,1255.16700174825,1035.09437317368,1255.16700174825,0.022177858694565
219,1037,1037,1315.6490530303,1092.23553721416,1315.6490530303,0.0232465311381701
220,1071.66666666667,1071,1379.18238636364,1175.98687401705,1379.18238636364,0.0243691174450908
221,1311.125,1206.5,1438.13238636364,1288.67763730725,1438.13238636364,0.0254107196926193
222,1575.75,1660.5,1500.2490530303,1419.55952289492,1500.2490530303,0.0265082745630006
223,1564.27272727273,1541.5,1586.58238636364,1554.61483711157,1586.58238636364,0.0280337197544617
224,1698.5,1697.5,1684.28238636364,1679.82588628868,1684.28238636364,0.0297600054132155
225,1811,1811,1784.48238636364,1781.17497675774,1784.48238636364,0.0315304641952741
228,1842,1842,1884.39310064935,1908.82910202288,1884.39310064935,0.0332958115159218
229,1874,1874,2014.79310064935,1921.12212776275,2014.79310064935,0.0355998816275031
231,1925,1925,2148.15976731602,1958.82188359702,2148.15976731602,0.0379563705120728
232,2014.33333333333,2014,2285.75976731602,2003.72902315054,2285.75976731602,0.0403876592187721
233,2085,2085,2426.37643398268,2079.00794343438,2426.37643398268,0.0428722501609259
234,2120,2120,2629.39518398268,2191.40861707063,2629.39518398268,0.0464594390717051
235,2189.33333333333,2189,2788.39518398268,2335.68008825146,2788.39518398268,0.0492688497138939
236,2680.66666666667,2297,2973.08154761905,2503.57116906159,2973.08154761905,0.0525321191193478
237,2918,2914,3164.32876984127,2686.83067158571,3164.32876984127,0.0559113139709212
238,2977,2984.5,3424.22876984127,2877.20740790854,3424.22876984127,0.0605035518696941
239,2982.21428571429,2980,3689.72876984127,3066.45019011478,3689.72876984127,0.0651947375646698
242,3605,3605,3960.32876984127,3617.17490211704,3960.32876984127,0.0699760364311875
243,3681.33333333333,3680,4239.0621031746,3818.46416876816,4239.0621031746,0.0749010451921902
244,3789,3789,4527.62043650794,4041.64084771377,4527.62043650794,0.0799996543277811
245,3884,3884,4842.46043650794,4294.5230775355,4842.46043650794,0.0855626407843015
246,5371.5,5371.5,5161.71876984127,4584.92899681492,5161.71876984127,0.091203695874076
247,4755.75,4090.5,5490.0208531746,4917.80167259716,5490.0208531746,0.0970045472374059
248,5258,4279,5847.33751984127,5286.58388578149,5847.33751984127,0.103318064507625
249,5523.44444444444,5475,6199.98751984127,5681.84334573065,6199.98751984127,0.109549125281008
251,7009,7009,6554.43751984127,6514.0648433746,6554.43751984127,0.11581199070317
252,7152,7152,6913.37680555556,6932.16229979495,6913.37680555556,0.122154178433896
253,7286,7286,7246.07680555556,7339.00784043122,7246.07680555556,0.128032737683306
254,7499.66666666667,7498,7580.06013888889,7726.35071753871,7580.06013888889,0.133933972469346
255,7785.5,7785.5,7916.83513888889,8090.66635494271,7916.83513888889,0.139884533909744
256,8381.8,8135,8257.68513888889,8429.61171936106,8257.68513888889,0.145907097541128
257,8505.16666666667,8332.5,8530.41013888889,8740.84377751151,8530.41013888889,0.150725943562454
258,8755.375,8629,8843.84763888889,9022.01949611189,8843.84763888889,0.156264148896801
259,9827,9827,9142.39763888889,9271.51318009243,9142.39763888889,0.161539303281867
261,9971,9971,9570.56541666667,9681.14641352569,9570.56541666667,0.169104706499044
265,10066,10066,9996.39041666667,10197.9042300641,9996.39041666667,0.176628714591561
266,10161,10161,10459.2104166667,10275.5101920018,10459.2104166667,0.184806396562742
267,10259,10259,10903.79375,10336.4047490452,10903.79375,0.192661850323789
269,10361,10361,11251.8354166667,10415.9036324184,11251.8354166667,0.198811485306547
270,10524.5,10524.5,11988.9604166667,10450.4986175749,11988.9604166667,0.211835930712984
271,10701,10701,12724.8704166667,10548.6381828599,12724.8704166667,0.224838907981494
272,10826,10826,13481.6120833333,10784.6953253195,13481.6120833333,0.23820996516213
273,11024.5,11024.5,14250.2933333333,11233.0430419998,14250.2933333333,0.251791985817483
274,11229,11229,14986.7433333333,11968.0543299467,14986.7433333333,0.264804504480627
275,14086.8,11645,15733.6933333333,13033.4140804369,15733.6933333333,0.278002550261652
276,15525.5,17179,16489.7433333333,14350.0547616698,16489.7433333333,0.291361386211507
277,16408.4,16647.5,17254.8683333333,15808.2207360749,17254.8683333333,0.304880570598958
278,16177.6666666667,15797.5,18388.3558333333,17298.1563660822,18388.3558333333,0.324908443839763
279,14460.5,14515,19519.0808333333,18710.1060141214,19519.0808333333,0.344887505779317
280,22528,22528,20646.3933333333,19934.3140426225,20646.3933333333,0.364806271405559
283,23100,23100,21820.3219047619,22276.9818755566,21820.3219047619,0.385548708020283
284,23640,23640,23002.794981685,22877.8464610693,23002.794981685,0.406442119632921
285,24129,24129,24231.7588705739,23536.9022084035,24231.7588705739,0.428156988993363
286,24556,24556,25652.9588705739,24343.0712222916,25652.9588705739,0.453268526129708
287,24910,24910,26917.7188705739,25385.2756074662,26917.7188705739,0.475615885902128
288,25187,25187,28086.6688705739,26720.3306744411,28086.6688705739,0.496270354897013
289,25463.5,25463.5,29178.3488705739,28276.6245568559,29178.3488705739,0.515559520996791
290,32928.75,32943,30255.0355372405,29950.4385941318,30255.0355372405,0.534583766151735
291,32975.5,32990.5,31385.6355372405,31638.0541256897,31385.6355372405,0.554560619435124
292,33070.75,33114.5,32062.2712515263,33235.7524909509,32062.2712515263,0.566516264570969
293,34179.5714285714,39365,32733.9212515263,34654.9047957047,32733.9212515263,0.578383815878051
294,34475.4615384615,37765,33532.8212515262,35867.2412112142,33532.8212515262,0.592499779161351
295,35603.7777777778,35560,34332.7212515263,36859.5816751109,34332.7212515263,0.606633411693973
296,39653,39653,35135.2962515262,37618.7461250261,35135.2962515262,0.620814309468531
297,39382,39382,35883.8212515262,38131.5544985914,35883.8212515262,0.634040184317238
298,38904.5,38904.5,36600.5962515263,38384.8267334381,36600.5962515263,0.646705060499974
299,38242,38242,37308.2712515262,38385.814367278,37308.2712515262,0.659209146513879
300,37711.4,37664,37656.4837515262,38223.4953381432,37656.4837515262,0.665361799993396
301,37072.5,36551,38010.7837515262,38007.2791841462,38010.7837515262,0.67162201502816
302,36060.7142857143,35809,38366.8962515262,37846.5754433997,38366.8962515262,0.67791425557732
303,36533,36475,38607.0176800977,37850.7936540159,38607.0176800977,0.68215702096629
304,39618,39618,38768.9779365079,38097.5527302205,38768.9779365079,0.685018737117049
305,40127,40127,38994.339047619,38537.3090906906,38994.339047619,0.689000698776741
306,40607.5,40646,38945.5057142857,39088.7285302165,38945.5057142857,0.688137850434853
307,39880.5,39773.5,38873.7848809524,39670.4768435884,38873.7848809524,0.686870597149109
308,39522.5,39522.5,38808.551547619,40201.2198255965,38808.551547619,0.685717973118341
309,39617,39617,38717.1015476191,40599.6232710312,38717.1015476191,0.684102120267849
313,39893,39893,38658.7565476191,40445.4862667999,38658.7565476191,0.68307120791616
314,40061.5,40061.5,38624.5190476191,40108.1484781207,38624.5190476191,0.682466256992501
315,40193,40193,38659.7633333333,39714.057492216,38659.7633333333,0.68308899706396
316,38982,40243,38667.8077777778,39294.5974179975,38667.8077777778,0.683231136358505
317,37714.6666666667,36521,38444.7077777778,38881.1523643767,38444.7077777778,0.67928912683478
318,40111,40111,38195.4827777778,38498.9378908326,38195.4827777778,0.674885508172519
319,38676.3333333333,39747,38006.0577777778,38148.4953591143,38006.0577777778,0.67153851061971
320,37947.5833333333,37816,37686.7327777778,37824.1975815382,37686.7327777778,0.66589627757998
321,37599.8333333333,37621,37359.6827777778,37520.4173704207,37359.6827777778,0.660117549589239
322,36413,36413,37005.8827777778,37231.5275380782,37005.8827777778,0.653866169179136
323,36544.5,36544.5,36623.3827777778,36951.9008968273,36623.3827777778,0.647107681313493
324,36387.75,36807,36245.0077777778,36675.4354685247,36245.0077777778,0.640422079101303
325,36765.6,37290,35850.8827777778,36394.1301131884,35850.8827777778,0.633458186212292
326,36693.8888888889,36995,35549.9661111111,36099.5089003769,35549.9661111111,0.628141214603831
327,35156,35493,35374.1661111111,35783.0958996487,35374.1661111111,0.625034960573034
328,35142.5,35142.5,34966.1661111111,35436.4151805621,34966.1661111111,0.617825906849681
329,36819,36819,34612.5494444444,35054.8628778071,34612.5494444444,0.611577765801953
331,33494,33494,34262.1077777778,34234.5531672879,34262.1077777778,0.605385724620823
333,32981.5,32981.5,33902.7661111111,33436.346385741,33902.7661111111,0.599036427120727
334,32541,32541,33600.5161111111,33082.4227442012,33600.5161111111,0.59369589651317
335,32243,32243,33286.4561111111,32778.2942159475,33286.4561111111,0.588146692071121
