"temp","CO2_av","CO2_med","Moving*","Modelled","CO2_scaled"
68,180,180,74.9362059465823,98.5818451333028,74.9362059465823
70,184,184,79.8612059465823,147.965626928344,79.8612059465823
74,179,179,83.007237692614,194.043828179441,83.007237692614
75,164,164,86.0636479490243,188.567832056578,86.0636479490243
78,144,144,89.0547590601354,140.134908610975,89.0547590601354
79,122,122,90.5954998008761,118.840860779955,90.5954998008761
80,100,100,91.6901234567901,97.7312287792846,91.6901234567901
81,75,75,93.2666666666667,78.4615841119209,93.2666666666667
83,55,55,83.3333333333333,49.581601693384,83.3333333333333
84,43,43,73.6,39.868362941738,73.6
85,36,36,64.9333333333333,33.0307800702293,64.9333333333333
87,32,32,58.9333333333333,27.1560446927899,58.9333333333333
88,29,29,54.8,27.7023805735095,54.8
89,28,28,53.8,30.2783772039336,53.8
90,28,28,54.8666666666667,34.6579424097547,54.8666666666667
91,31,31,58.2,40.6149840166653,58.2
92,38,38,63.3333333333333,47.9234098503579,63.3333333333333
93,49,49,69.6,56.3424713008951,69.6
94,74,77,76.6666666666667,65.5727940158202,76.6666666666667
95,82,82,84.1333333333333,75.3003472070467,84.1333333333333
96,107,107,91.7333333333333,85.2111000864879,91.7333333333333
101,116,116,99.2666666666667,126.521782223888,99.2666666666667
102,125,125,106.666666666667,131.043247885542,106.666666666667
104,132,132,113.466666666667,136.27496980138,113.466666666667
105,137,137,119.166666666667,137.631098912285,119.166666666667
106,142,142,123.633333333333,138.577988696329,123.633333333333
108,144,144,125.966666666667,139.752671312126,125.966666666667
109,143,143,127.3,139.549540558518,127.3
110,141,141,126.7,138.466885649902,126.7
111,139,139,125.3,136.240299500776,125.3
112,133,133,123.033333333333,132.605375025637,123.033333333333
113,123.5,123.5,120.1,127.431908735123,120.1
114,116,116,116.633333333333,121.126511524426,116.633333333333
115,109,109,112.8,114.229997884876,112.8
117,102,102,108.866666666667,100.826879284547,108.866666666667
118,98,98,104.933333333333,95.401903306429,104.933333333333
119,95,95,101.133333333333,91.416486334773,101.133333333333
120,91,91,97.4666666666667,88.7485302108521,97.4666666666667
121,88,88,94.15,87.1433542459281,94.15
122,85,85,91.2833333333333,86.3462777512629,91.2833333333333
123,84.5,84.5,88.7833333333333,86.090182959166,88.7833333333333
124,85,85,86.6166666666667,86.0582037861374,86.6166666666667
125,84,84,84.7722222222222,85.9210370697248,84.7722222222222
126,84,84,83.1722222222222,85.3493796474758,83.1722222222222
127,84,84,82.0388888888889,84.0139283569381,82.0388888888889
128,83.25,83.5,81.3555555555556,81.7458325468208,81.3555555555556
129,80.5,80.5,84.0777777777778,79.0180516104778,84.0777777777778
130,78.5,78.5,85.4244444444444,76.4639974524249,85.4244444444444
131,76.5,76.5,88.5971717171717,74.7170819771774,88.5971717171717
132,74.3333333333333,74,95.2416161616161,74.4107170892508,95.2416161616161
133,74,74,106.441616161616,76.2259738072291,106.441616161616
134,78,78,117.974949494949,81.0345596059705,117.974949494949
135,80.75,81,129.774949494949,89.7558410744017,129.774949494949
136,128.833333333333,80.5,142.02494949495,103.309184801449,142.02494949495
137,105.2,91.5,154.858282828283,122.167335619461,154.858282828283
138,132.090909090909,122,168.091616161616,145.016551334469,168.091616161616
139,184.666666666667,182,181.758282828283,170.096467995926,181.758282828283
142,252,252,195.869393939394,241.116784153517,195.869393939394
143,257,257,210.452727272727,257.515865095296,210.452727272727
144,261,261,225.119393939394,267.930746176316,225.119393939394
145,267,267,239.802727272727,273.535658173664,239.802727272727
146,273,273,251.658282828283,276.091750809956,251.658282828283
147,277,277,265.489393939394,277.360173807808,265.489393939394
148,281.5,281.5,278.275,279.102076889836,278.275
149,286,286,288.697222222222,282.706176833186,288.697222222222
150,292.75,293,294.263888888889,288.071458633131,294.263888888889
151,298,298,300.358333333333,294.724474339471,300.358333333333
152,301,301,307.291666666667,302.19177600201,307.291666666667
153,306.666666666667,307,313.958333333333,310.045493674001,313.958333333333
154,312.666666666667,313,320.358333333333,318.040069422509,320.358333333333
155,323.875,319.5,326.758333333333,325.975523318047,326.758333333333
156,341,341,333.125,333.65187543113,333.125
157,335.5,336,339.391666666667,340.869145832274,339.391666666667
158,348.416666666667,348,345.408333333333,347.458780729106,345.408333333333
160,365,365,351.341666666667,358.615173171272,351.341666666667
163,367,367,357.375,370.121221853684,357.375
165,369,369,363.497222222222,374.17295807533,363.497222222222
166,373,373,369.619444444444,375.078867995746,369.619444444444
167,377,377,375.361111111111,375.408314801707,375.361111111111
168,380,380,380.261111111111,376.076907827523,380.261111111111
169,383,383,385.961111111111,378.185662895731,385.961111111111
170,387,387,392.626666666667,382.835595828865,392.626666666667
171,391.5,391.5,397.16,390.660055636945,397.16
172,398.5,398.5,403.2,400.421724079929,403.2
173,404.5,404.5,410.48,410.415616105261,410.48
174,410,410,418.021666666667,418.936746660384,418.021666666667
175,414.5,414.5,425.888333333333,424.280130692742,425.888333333333
176,421,421,439.766111111111,425.690247845696,439.766111111111
177,448.4,429,457.152777777778,426.209436546289,457.152777777778
178,433,433,478.019444444444,429.829499917483,478.019444444444
179,457.6,439,501.986111111111,440.542241082241,501.986111111111
180,478.2,449,527.997222222222,462.339463163523,527.997222222222
181,486.125,497.5,555.230555555556,497.679367487054,555.230555555556
182,495,485.5,582.830555555556,542.885748189603,582.830555555556
183,588.166666666667,587.5,610.663888888889,592.748797610703,610.663888888889
184,643.8,644,638.663888888889,642.058708089886,638.663888888889
185,700,700.5,667.675317460318,686.516945374423,667.675317460318
186,751,752,698.030873015873,725.470068842553,698.030873015873
188,788.666666666667,788.5,729.124206349206,787.892305473494,729.124206349206
189,813,813,760.910873015873,811.877084208261,760.910873015873
190,824,824,793.169206349206,831.388080270528,793.169206349206
191,832,832,825.80253968254,846.887193571829,825.80253968254
192,841,841,853.258095238095,859.652592525925,853.258095238095
193,883.571428571429,863,877.471428571429,871.166512672129,877.471428571429
194,888.333333333333,886.5,898.804761904762,882.911189549759,898.804761904762
195,924,924,917.915873015873,896.368858698131,917.915873015873
199,955,955,941.484761904762,968.28095167679,941.484761904762
200,970,970,963.173650793651,985.188892712009,963.173650793651
201,984.5,984.5,979.173650793651,999.253293734227,979.173650793651
202,1000,1000,999.478412698413,1009.26640117883,999.478412698413
203,1007,1007,1020.89910235359,1014.98812911052,1020.89910235359
204,1020,1020,1051.39434044882,1020.04906211121,1051.39434044882
205,1037.66666666667,1038,1082.83878489327,1029.04745239216,1082.83878489327
206,1142.2,1053,1113.68322933771,1046.5815521646,1113.68322933771
207,1138.33333333333,1059,1143.61656267105,1077.24961363976,1143.61656267105
208,1064,1064,1173.24989600438,1123.76606962222,1173.24989600438
209,1136.57142857143,1080,1202.68322933771,1181.31007528987,1202.68322933771
210,1162.31034482759,1151,1231.84989600438,1243.17696641396,1231.84989600438
211,1341,1341,1282.74322933771,1302.66207876573,1282.74322933771
214,1360,1360,1317.80989600438,1399.7801008994,1317.80989600438
216,1386.66666666667,1387,1378.6321182266,1362.14931113303,1378.6321182266
217,1404,1404,1457.67656267105,1343.61835252217,1457.67656267105
218,1414.5,1414.5,1537.22767378216,1348.78906598801,1537.22767378216
219,1426,1426,1674.89434044882,1395.2954874519,1674.89434044882
220,1437.5,1437.5,1812.35624521073,1495.76697394358,1812.35624521073
221,1770.4,1482,1949.43555555556,1642.81416692623,1949.43555555556
222,1546,1545,2075.10222222222,1824.0430289714,2075.10222222222
223,1950,1650,2217.25777777778,2027.05952265065,2217.25777777778
224,2327.86666666667,2582,2349.08833333333,2239.46961053552,2349.08833333333
225,2331.6,2331.5,2508.99944444444,2450.50899736504,2508.99944444444
227,3129,3131.5,2694.69944444444,2853.12410366083,2694.69944444444
228,3198.5,3198.5,2884.63277777778,3039.46865427973,2884.63277777778
229,3218.5,3218.5,3078.93277777778,3212.35042398104,3078.93277777778
230,3226,3226,3261.28388888889,3369.15382834108,3261.28388888889
231,3492.33333333333,3238.5,3471.88388888889,3508.92649908402,3471.88388888889
232,3364.125,3345,3670.17277777778,3637.36893252563,3670.17277777778
233,3802.66666666667,3773.5,3858.44833333333,3761.84484112951,3858.44833333333
235,4200,4200,4061.34166666667,4028.35193367863,4061.34166666667
236,4275,4275,4243.23560606061,4185.11054255112,4243.23560606061
237,4352,4352,4412.30227272727,4364.92061916566,4412.30227272727
238,4505.66666666667,4505,4581.64227272727,4562.96158961227,4581.64227272727
239,4705,4705,4753.60893939394,4771.97602270618,4753.60893939394
240,4924.33333333333,4924,4916.18671717172,4984.70648726267,4916.18671717172
241,5152,5152,5090.84505050505,5193.76342748398,5090.84505050505
242,5375,5420,5240.43393939394,5391.22878912035,5240.43393939394
243,5857.40909090909,5874,5372.36727272727,5569.05239330899,5372.36727272727
244,5734.5,5734.5,5506.86727272727,5719.18406118713,5506.86727272727
245,5758.6,5741,5644.26727272727,5833.57361389198,5644.26727272727
246,5805.5,5787,5779.6894949495,5907.33459816741,5779.6894949495
247,5931,5931,5913.12282828283,5948.23546318383,5913.12282828283
250,5984,5984,6040.23393939394,5983.09909044983,6040.23393939394
252,6046.5,6046.5,6261.68949494949,6042.46411657847,6261.68949494949
253,6179,6179,6453.02572683355,6115.77993635939,6453.02572683355
254,6292.5,6292.5,6588.63549114332,6231.85542934145,6588.63549114332
255,6413,6413,6855.66882447665,6397.09561540502,6855.66882447665
256,6537,6537,7125.29549114332,6617.00008345111,7125.29549114332
257,6706.5,6706.5,7395.99549114332,6897.06842238071,7395.99549114332
258,6831,6831,7662.52882447665,7238.38582721883,7662.52882447665
259,8473.83333333333,8917,7929.92882447665,7624.37991748658,7929.92882447665
260,8245.04347826087,8191,8197.62882447665,8034.06391882902,8197.62882447665
261,7891.55555555556,7895,8461.29549114332,8446.45105689126,8461.29549114332
265,9740,9740,8722.52882447665,9703.2954892398,8722.52882447665
266,9803,9803,8984.69549114332,9823.59775797751,8984.69549114332
267,9866,9866,9248.82882447665,9875.88889170703,9248.82882447665
268,9929,9929,9560.31771336554,9894.38849047489,9560.31771336554
269,9995,9995,9910.85104669887,9913.31615432768,9910.85104669887
270,10062,10062,10169.2526340005,9966.89148331195,10169.2526340005
271,10134,10134,10472.5164021164,10084.4735115171,10472.5164021164
272,10211,10211,10821.5793650794,10275.979009204,10821.5793650794
273,10345.5,10345.5,10957.1793650794,10546.4641806764,10957.1793650794
274,10499,10499,11084.746031746,10900.9852302378,11084.746031746
275,11378.8333333333,11418,11205.0793650794,11333.6107559131,11205.0793650794
276,12089,12313,11319.6126984127,11794.4589306116,11319.6126984127
277,12349.8571428571,12766,11427.9793650794,12222.6603209635,11427.9793650794
278,12794,13115,11530.5126984127,12557.3454935991,11530.5126984127
279,13127.5,13198,11627.646031746,12737.6450151489,11627.646031746
281,11774,11774,11757.946031746,12550.4672688667,11757.946031746
283,11716.5,11716.5,11855.7926984127,11968.4611019327,11855.7926984127
284,11671,11671,11996.5465445665,11675.082334837,11996.5465445665
285,11647,11647,12066.2831458737,11457.8184315173,12066.2831458737
286,11620.5,11620.5,12091.7498125404,11374.9433816198,12091.7498125404
287,11600,11600,12132.0260030166,11463.772868812,12132.0260030166
288,11591,11591,12103.2260030166,11677.7893528459,12103.2260030166
289,12165.5,12151.5,12044.0593363499,11949.5169874947,12044.0593363499
290,11813.2,11608,12061.2260030166,12211.4799265313,12061.2260030166
291,12610.3076923077,12896,12066.8593363499,12408.9695400174,12066.8593363499
292,12424.8823529412,12469,12064.5260030166,12538.3460631675,12064.5260030166
293,12471,12471,12046.5593363499,12608.7369474847,12046.5593363499
294,12954,12954,11929.2926696833,12629.2696444719,11929.2926696833
295,12362,12362,11781.6037807944,12609.071605632,11781.6037807944
298,12240,12240,11658.4418760325,12335.989577079,11658.4418760325
300,12031.5,12031.5,11459.6640982547,11941.6829724597,11459.6640982547
301,11801,11801,11291.2863204769,11668.651107583,11291.2863204769
302,11636,11636,11062.5908076564,11339.6099845985,11062.5908076564
303,11377.5,11377.5,10795.8986507937,10950.491941209,10795.8986507937
304,9861.5,9861.5,10520.7653174603,10505.3348268917,10520.7653174603
305,9384.66666666667,8639,10205.4986507937,10040.5985382211,10205.4986507937
306,9743.57142857143,10304,9929.59865079365,9600.84848354661,9929.59865079365
307,9183.83333333333,8765,9647.33198412698,9230.65007121725,9647.33198412698
308,9287.53333333333,9180,9344.86531746032,8962.52959347129,9344.86531746032
309,9179.875,9258,9058.83674603175,8780.85687810322,9058.83674603175
311,8424.5,8424.5,8775.58341269841,8566.17758123514,8775.58341269841
312,8344,8344,8499.04341269841,8477.83242310228,8499.04341269841
313,8225,8225,8324.34341269841,8365.25787408166,8324.34341269841
314,8223.5,8223.5,8184.4323015873,8208.63951672215,8184.4323015873
316,8006,8029,8024.06087301587,7817.5465118924,8024.06087301587
317,7494.5,7416,7909.98865079365,7621.99173817308,7909.98865079365
318,7510.57142857143,7574,7794.94568783069,7452.3780327514,7794.94568783069
319,7387.2,7412,7694.12439153439,7328.16533250282,7694.12439153439
320,7229.4,7223,7643.07994708995,7263.43017505575,7643.07994708995
322,7241,7241,7583.74661375661,7277.18085187994,7583.74661375661
323,7286,7286,7530.41328042328,7329.98576893752,7530.41328042328
324,7338,7338,7468.82439153439,7396.2897936163,7468.82439153439
325,7472.75,7475.5,7419.66883597884,7464.57829677269,7419.66883597884
326,7561.88888888889,7561,7402.39105820106,7528.63996711605,7402.39105820106
327,7667.55555555556,7668,7375.30534391534,7583.58932281897,7375.30534391534
328,7658.83333333333,7690.5,7349.66534391534,7624.54088205405,7349.66534391534
332,7454,7454,7328.32015873016,7550.65951776799,7328.32015873016
333,7425,7425,7320.5646031746,7452.34783864548,7320.5646031746
334,7299.66666666667,7364,7319.89793650794,7334.77330044634,7319.89793650794
335,7268.66666666667,7301,7315.85349206349,7217.09824969879,7315.85349206349
336,7235.33333333333,7237,7303.1146031746,7118.48503293104,7303.1146031746
337,7104.28571428571,7106,7283.31248677249,7058.09599667133,7283.31248677249
338,7002.6,6990.5,7256.44211640212,7048.93222075057,7256.44211640212
339,6909.22222222222,6897,7230.71989417989,7079.34971821057,7230.71989417989
340,7124.66666666667,7244,7219.21989417989,7131.54323539584,7219.21989417989
341,7276,7276,7210.15322751323,7187.70751865088,7210.15322751323
342,7277.33333333333,7285,7209.8198941799,7233.11416037991,7209.8198941799
343,7281.66666666667,7282,7208.26635882636,7265.34213722585,7208.26635882636
344,7264.85714285714,7264,7204.77746993747,7285.04727189134,7204.77746993747
345,7264.5,7264.5,7219.17746993747,7292.88538707899,7219.17746993747
346,7273,7273,7244.35413660414,7289.51230549145,7244.35413660414
347,7281.5,7281.5,7290.73932178932,7276.81029734235,7290.73932178932
348,7289,7289,7325.49487734488,7261.56742288946,7325.49487734488
349,7294.66666666667,7295,7353.49487734488,7251.79818990157,7353.49487734488
350,7245.36363636364,7249,7335.97265512265,7255.51710614746,7335.97265512265
351,7183,7183,7367.02821067821,7280.73867939592,7367.02821067821
352,7320.28571428571,7247,7356.0044011544,7332.36549892501,7356.0044011544
353,7380.25,7341,7352.36154401154,7402.85248004989,7352.36154401154
354,7605,7605,7347.15265512265,7481.54261959502,7347.15265512265
358,7646,7646,7345.6970995671,7665.19469846678,7345.6970995671
360,7696,7696,7308.8970995671,7558.73372792536,7308.8970995671
361,7014.5,6779.5,7271.05265512265,7466.69317740272,7271.05265512265
362,7747.5,7747.5,7235.69507936508,7364.14603454379,7235.69507936508
363,7099.5,6801.5,7202.99507936508,7262.61738772234,7202.99507936508
364,7209.85714285714,6886,7159.4426984127,7173.63232531211,7159.4426984127
365,7194.86666666667,7120,7082.1726984127,7105.42050642971,7082.1726984127
366,7259.66666666667,7259,6992.60603174603,7053.02987316316,6992.60603174603
367,6737,6737,6899.29650793651,7008.21293834331,6899.29650793651
370,6727,6727,6785.62984126984,6836.72945287261,6785.62984126984
371,6715,6715,6720.36317460317,6739.73244014821,6720.36317460317
372,6692.5,6692.5,6609.72984126984,6613.63839337268,6609.72984126984
373,6667,6667,6546.26317460317,6473.03334211623,6546.26317460317
374,6221.2,5952,6488.00603174603,6337.07001929692,6488.00603174603
375,6261.5,6248,6436.488994709,6224.90115783279,6436.488994709
376,6246.35714285714,6249.5,6375.31121693122,6151.29340893397,6375.31121693122
379,5991,5991,6343.37788359788,6116.51575458097,6343.37788359788
380,6035.5,6035.5,6286.76121693122,6143.05920947911,6286.76121693122
381,6088,6088,6230.69455026455,6176.73107200249,6230.69455026455
382,6147.5,6147.5,6180.62788359788,6210.3675848215,6180.62788359788
383,6336,6338,6118.74121693122,6237.72564205532,6118.74121693122
384,6422.11111111111,6434,6091.76121693122,6256.24474361835,6091.76121693122
385,6342,6342,6035.66121693122,6264.28504087377,6035.66121693122
389,6258,6258,5930.30407407407,6158.86121408284,5930.30407407407
390,5877.75,5877,5866.08740740741,6089.90976024785,5866.08740740741
391,5874,5874,5790.15407407407,6000.99620940769,5790.15407407407
392,5941.5,6071.5,5693.41185185185,5892.25970854243,5693.41185185185
393,5738.7,5685.5,5578.84518518518,5764.19520375548,5578.84518518518
394,5816.5,5810.5,5438.77851851852,5617.29764115029,5438.77851851852
396,5420,5420,5291.13777777778,5277.43257365408,5291.13777777778
397,4666,4322,5137.51555555556,5097.07295025829,5137.51555555556
398,5027.75,5252,4983.89888888889,4918.87130865711,4983.89888888889
399,4896.5,5081,4852.54222222222,4749.65968002036,4852.54222222222
400,4636.86666666667,4617,4726.87555555556,4596.27009551786,4726.87555555556
401,4429,4429,4579.04222222222,4463.99524793082,4579.04222222222
402,4235,4235,4443.86222222222,4351.97047648602,4443.86222222222
405,4207.5,4207.5,4302.56222222222,4113.35662738702,4302.56222222222
407,4037.66666666667,4165,4178.12888888889,4011.45779073245,4178.12888888889
408,3953.75,3957.5,4101.61777777778,3970.44949374317,4101.61777777778
409,3907.4,3855,4003.19444444445,3933.04180230475,4003.19444444445
410,3989,3991,3909.79027777778,3897.72333496165,3909.79027777778
411,3724,3724,3814.4325,3863.16123379961,3814.4325
415,3711,3711,3733.5825,3705.81933267671,3733.5825
416,3697,3697,3657.84916666667,3655.04619370596,3657.84916666667
417,3553.5,3555,3582.74916666667,3597.40230375597,3582.74916666667
418,3518.33333333333,3475.5,3504.81583333333,3533.40495653894,3504.81583333333
419,3551.4,3508,3438.06583333333,3463.94147609238,3438.06583333333
420,3495.4375,3543,3381.1725,3389.89918645379,3381.1725
421,3206.5,3206.5,3311.76297619048,3312.58095284357,3311.76297619048
422,3216.25,3215.5,3264.30964285714,3234.95180521359,3264.30964285714
423,3099,3099,3218.87887362637,3160.39231469862,3218.87887362637
425,3081,3081,3159.67887362637,3034.00458955272,3159.67887362637
427,2868.66666666667,2868,3109.64554029304,2960.46234648396,3109.64554029304
428,2952.5,2952.5,3061.55665140415,2950.25405450347,3061.55665140415
429,3054,3054,3008.83665140415,2953.1649220749,3008.83665140415
430,2947.85714285714,2938,2961.60142413142,2962.34159596139,2961.60142413142
431,3012.2,3009,2935.11623894624,2970.93072292605,2935.11623894624
432,3029.53846153846,3050,2902.66623894624,2972.078949732,2902.66623894624
435,2809,2809,2870.99957227957,2906.40344971438,2870.99957227957
436,2803,2803,2839.06623894624,2869.63135302656,2839.06623894624
437,2797,2797,2815.87179450179,2830.31492589392,2815.87179450179
